scan 59/2/202411:15:23 AM
temp(°C)	power	time(seconds)	pressure(A)	scan rate(°C/min)	AnalysisData	CorrectedData
100.000013610817	-20.1786711865852	47796.7999999998	0.0103849172592163	-0.00502850323736733	-20.1786711865852	-20.1786711865852
99.9999116613337	-11.2740462517395	47801.7999999998	0.0103864073753357	-0.00502850323736733	-11.2740462517395	-11.2740462517395
99.9998027643444	-5.20170996821814	47802.7999999998	0.0103867053985596	-0.00502850323736733	-5.20170996821814	-5.20170996821814
99.9996373176409	2.03880550336331	47803.7999999998	0.0103861093521118	-0.00502850323736733	2.03880550336331	2.03880550336331
99.9994065622095	9.98463456082851	47804.7999999998	0.0103846192359924	-0.00885705604128718	9.98463456082851	9.98463456082851
99.999101789198	18.3492404864116	47805.7999999998	0.0103846192359924	-0.0134394057400381	18.3492404864116	18.3492404864116
99.9987170549858	27.220785557623	47806.7999999998	0.0103852152824402	-0.0188012084237487	27.220785557623	27.220785557623
99.9982500005953	36.3457944051372	47807.7999999998	0.0103840231895447	-0.0249799360576373	36.3457944051372	36.3457944051372
99.9976950032337	45.8895726507363	47808.7999999998	0.0103864073753357	-0.0312437661825779	45.8895726507363	45.8895726507363
99.9970490696906	55.8521171821997	47809.7999999998	0.0103840231895447	-0.0379148011986428	55.8521171821997	55.8521171821997
99.9963078282366	66.2444450223934	47810.7999999998	0.0103855133056641	-0.0449272029244493	66.2444450223934	66.2444450223934
99.995468151066	77.2318602567243	47811.7999999998	0.0103849172592163	-0.0508544952430969	77.2318602567243	77.2318602567243
99.994524416944	88.5057835458778	47812.7999999998	0.0103849172592163	-0.0570002040380554	88.5057835458778	88.5057835458778
99.993475547978	100.385805533816	47813.7999999998	0.0103855133056641	-0.0633812624721892	100.385805533816	100.385805533816
99.9923169761503	112.761715585512	47814.7999999998	0.0103852152824402	-0.0699859549188123	112.761715585512	112.761715585512
99.9910449794293	125.589426007923	47815.7999999998	0.0103858113288879	-0.0768087021164985	125.589426007923	125.589426007923
99.9896545890688	138.824848691874	47816.7999999998	0.0103858113288879	-0.0838398697002926	138.824848691874	138.824848691874
99.9881428001627	152.379813701641	47817.7999999998	0.0103855133056641	-0.0910896367294965	152.379813701641	152.379813701641
99.9865071358191	166.342478287082	47818.7999999998	0.0103855133056641	-0.0985487463974063	166.342478287082	166.342478287082
99.9847430988123	180.745896352402	47819.7999999998	0.0103855133056641	-0.106216369384932	180.745896352402	180.745896352402
99.9828484236928	195.358631850048	47820.7999999998	0.0103846192359924	-0.114068867230555	195.358631850048	195.358631850048
99.9808196224039	210.180677754744	47821.7999999998	0.0103843212127686	-0.122102190021443	210.180677754744	210.180677754744
99.9786530696677	225.201006313951	47822.7999999998	0.0103840231895447	-0.130318546126854	225.201006313951	225.201006313951
99.9763465545586	240.375528823472	47823.7999999998	0.0103852152824402	-0.138707871458256	240.375528823472	240.375528823472
99.9738975446602	255.847501886384	47824.7999999998	0.0103852152824402	-0.147268996522192	255.847501886384	255.847501886384
99.9713033054377	271.429571936572	47825.7999999998	0.0103855133056641	-0.155994282667474	271.429571936572	271.429571936572
99.9685605138088	287.22091338746	47826.7999999998	0.0103849172592163	-0.164864350712719	287.22091338746	287.22091338746
99.9656670407653	303.276618748559	47827.7999999998	0.0103858113288879	-0.173890095878286	303.276618748559	303.276618748559
99.962620289426	319.607698700414	47828.7999999998	0.0103855133056641	-0.183057271231308	319.607698700414	319.607698700414
99.9594188954179	336.12598233729	47829.7999999998	0.0103852152824402	-0.192360811208394	336.12598233729	336.12598233729
99.9560593767061	352.86452025823	47830.7999999998	0.0103861093521118	-0.201787377281367	352.86452025823	352.86452025823
99.9525408630165	369.65800147682	47831.7999999998	0.0103855133056641	-0.211340919441219	369.65800147682	369.65800147682
99.9488612107967	386.770898724319	47832.7999999998	0.0103861093521118	-0.221013501604099	386.770898724319	386.770898724319
99.945018653126	404.137080455165	47833.7999999998	0.0103840231895447	-0.23078704876858	404.137080455165	404.137080455165
99.9410106001638	421.514095764957	47834.7999999998	0.0103852152824402	-0.240655847817826	421.514095764957	421.514095764957
99.9368353809055	439.122334680805	47835.7999999998	0.0103846192359924	-0.250635549783575	439.122334680805	439.122334680805
99.9324937397282	456.873627692748	47836.7999999998	0.0103858113288879	-0.260706637550194	456.873627692748	456.873627692748
99.9279828611274	474.65776535384	47837.7999999998	0.0103855133056641	-0.270856223829981	474.65776535384	474.65776535384
99.9233000488751	492.617995192544	47838.7999999998	0.0103855133056641	-0.281079277908743	492.617995192544	492.617995192544
99.9184454364158	510.589010363433	47839.7999999998	0.0103852152824402	-0.291384441253756	510.589010363433	510.589010363433
99.9134187603458	528.769156740325	47840.7999999998	0.0103855133056641	-0.301755183949086	528.769156740325	528.769156740325
99.9082180177411	546.927009375876	47841.7999999998	0.0103875994682312	-0.312193021285907	546.927009375876	546.927009375876
99.9028405294259	565.007460659296	47842.7999999998	0.0103840231895447	-0.322676266651456	565.007460659296	565.007460659296
99.8972889682675	583.330070984225	47843.7999999998	0.0103861093521118	-0.333213905508103	583.330070984225	583.330070984225
99.8915603419773	601.608319964336	47844.7999999998	0.0103861093521118	-0.343811416872646	601.608319964336	601.608319964336
99.8856544844325	619.820160602187	47845.7999999998	0.0103867053985596	-0.354441399189836	619.820160602187	619.820160602187
99.8795704807732	637.998642773689	47846.7999999998	0.0103864073753357	-0.365094016100045	637.998642773689	637.998642773689
99.8733074283774	656.242931372036	47847.7999999998	0.0103855133056641	-0.375799385203176	656.242931372036	656.242931372036
99.8668665211689	674.431805683704	47848.7999999998	0.0103861093521118	-0.386523439007971	674.431805683704	674.431805683704
99.8602462275476	692.433027071165	47849.7999999998	0.0103852152824402	-0.397267855441044	692.433027071165	692.433027071165
99.8534457066605	710.522067004079	47850.7999999998	0.0103858113288879	-0.408021318666109	710.522067004079	710.522067004079
99.8464659407597	728.533630408262	47851.7999999998	0.0103858113288879	-0.418776479918311	728.533630408262	728.533630408262
99.8393065679643	746.346501409517	47852.7999999998	0.0103846192359924	-0.429545917392805	746.346501409517	746.346501409517
99.8319679935955	764.203090878657	47853.7999999998	0.0103849172592163	-0.440323705560023	764.203090878657	764.203090878657
99.8244501723869	781.860975743352	47854.7999999998	0.0103846192359924	-0.451080046664052	781.860975743352	781.860975743352
99.8167528308065	799.364226331461	47855.7999999998	0.0103849172592163	-0.461835310934435	799.364226331461	799.364226331461
99.8088751285656	816.845060612493	47856.7999999998	0.0103861093521118	-0.472530465809687	816.845060612493	816.845060612493
99.8008197012163	834.016990070018	47857.7999999998	0.0103870034217834	-0.483139566042001	834.016990070018	834.016990070018
99.7925851544841	851.089363429693	47858.7999999998	0.0103864073753357	-0.493596256602383	851.089363429693	851.089363429693
99.7841780136199	867.401076316063	47859.7999999998	0.0103864073753357	-0.503885432094892	867.401076316063	867.401076316063
99.7756017108906	882.974178170066	47860.7999999998	0.0103855133056641	-0.513945043495231	882.974178170066	882.974178170066
99.76686394245	897.676467032899	47861.7999999998	0.0103843212127686	-0.523768228199596	897.676467032899	897.676467032899
99.757966197062	911.651194426787	47862.7999999998	0.0103864073753357	-0.533299335370876	911.651194426787	911.651194426787
99.7489148734912	924.744125028794	47863.7999999998	0.0103861093521118	-0.542570998890101	924.744125028794	924.744125028794
99.7397134079264	937.153601411885	47864.7999999998	0.0103849172592163	-0.551584201502067	937.153601411885	937.153601411885
99.7303668986908	948.83556891108	47865.7999999998	0.0103873014450073	-0.560361570810731	948.83556891108	948.83556891108
99.7208780637494	959.801061855081	47866.7999999998	0.0103849172592163	-0.568891668337008	959.801061855081	959.801061855081
99.7112502207154	970.072133046422	47867.7999999998	0.0103849172592163	-0.577192103706474	970.072133046422	970.072133046422
99.7014884258554	979.549643502816	47868.7999999998	0.0103861093521118	-0.585267284840134	979.549643502816	979.549643502816
99.6915955024227	988.475997913163	47869.7999999998	0.0103855133056641	-0.593126258504161	988.475997913163	988.475997913163
99.6815757947254	996.807142663585	47870.7999999998	0.0103861093521118	-0.600756180491666	996.807142663585	996.807142663585
99.671432224695	1004.49902497224	47871.7999999998	0.0103840231895447	-0.608156177546561	1004.49902497224	1004.49902497224
99.6611688351986	1011.76098991027	47872.7999999998	0.0103867053985596	-0.615340225805759	1011.76098991027	1011.76098991027
99.650789842692	1018.27355658018	47873.7999999998	0.0103852152824402	-0.622305790768678	1018.27355658018	1018.27355658018
99.6402986666683	1024.42234083159	47874.7999999998	0.0103861093521118	-0.629043550207971	1024.42234083159	1024.42234083159
99.6296987328447	1029.96498395469	47875.7999999998	0.0103855133056641	-0.635549581118572	1029.96498395469	1029.96498395469
99.6189931601664	1035.06675600577	47876.7999999998	0.0103864073753357	-0.641830233809466	1035.06675600577	1035.06675600577
99.6081873805345	1039.58445744788	47877.7999999998	0.0103861093521118	-0.647890320360318	1039.58445744788	1039.58445744788
99.5972847735645	1043.49607453294	47878.7999999998	0.0103861093521118	-0.653720526467347	1043.49607453294	1043.49607453294
99.5862886412542	1047.2312676041	47879.7999999998	0.0103843212127686	-0.659332922474789	1047.2312676041	1047.2312676041
99.57520263865	1050.29431099497	47880.7999999998	0.0103858113288879	-0.664703695621175	1050.29431099497	1050.29431099497
99.5640312719137	1052.96063341764	47881.7999999998	0.0103846192359924	-0.669853774888907	1052.96063341764	1052.96063341764
99.552776558556	1055.25228050828	47882.7999999998	0.0103852152824402	-0.674782977386355	1055.25228050828	1055.25228050828
99.5414443956772	1056.99301349081	47883.7999999998	0.0103858113288879	-0.679487717520349	1056.99301349081	1056.99301349081
99.5300377734641	1058.29301043745	47884.7999999998	0.0103861093521118	-0.683975015452225	1058.29301043745	1058.29301043745
99.5185600928694	1059.30650842113	47885.7999999998	0.0103867053985596	-0.688247675861443	1059.30650842113	1059.30650842113
99.5070150742102	1059.71406671636	47886.7999999998	0.0103864073753357	-0.692290260728531	1059.71406671636	1059.71406671636
99.4954055535139	1059.9893738735	47887.7999999998	0.0103849172592163	-0.696123187631486	1059.9893738735	1059.9893738735
99.4837357097299	1059.74689932725	47888.7999999998	0.0103846192359924	-0.699735517120611	1059.74689932725	1059.74689932725
99.472009361471	1059.17392288178	47889.7999999998	0.0103861093521118	-0.703128141551141	1059.17392288178	1059.17392288178
99.4602300237869	1058.11624628179	47890.7999999998	0.0103861093521118	-0.70632517191139	1058.11624628179	1058.11624628179
99.4484019631334	1056.82723519476	47891.7999999998	0.0103861093521118	-0.709301115964495	1056.82723519476	1056.82723519476
99.4365284763551	1055.09761678507	47892.7999999998	0.0103858113288879	-0.712064861288216	1055.09761678507	1055.09761678507
99.4246104708205	1053.0705987683	47893.7999999998	0.0103858113288879	-0.714632446215303	1053.0705987683	1053.0705987683
99.4126537566513	1050.63604958279	47894.7999999998	0.0103870034217834	-0.717002632386336	1050.63604958279	1050.63604958279
99.4006614759129	1047.94818957053	47895.7999999998	0.0103864073753357	-0.719173825041943	1047.94818957053	1047.94818957053
99.3886355760792	1045.07311571528	47896.7999999998	0.0103861093521118	-0.721147124500468	1045.07311571528	1045.07311571528
99.3765797166752	1041.70243648159	47897.7999999998	0.0103864073753357	-0.722909515339966	1041.70243648159	1041.70243648159
99.3644983502118	1038.12254187871	47898.7999999998	0.0103864073753357	-0.72448539040652	1038.12254187871	1038.12254187871
99.3523946451634	1034.24532912968	47899.7999999998	0.0103843212127686	-0.725891259931026	1034.24532912968	1034.24532912968
99.3402710273642	1030.11486624729	47900.7999999998	0.0103852152824402	-0.727097863891239	1030.11486624729	1030.11486624729
99.3281304611039	1025.63203971263	47901.7999999998	0.0103846192359924	-0.728115435283598	1025.63203971263	1025.63203971263
99.3159741622543	1021.00612322152	47902.7999999998	0.0103849172592163	-0.728953606427427	1021.00612322152	1021.00612322152
99.3038074919586	1016.03888142058	47903.7999999998	0.0103858113288879	-0.729627302107636	1016.03888142058	1016.03888142058
99.2916329158921	1010.9505976294	47904.7999999998	0.0103861093521118	-0.730136159411724	1010.9505976294	1010.9505976294
99.2794537627953	1005.46594449041	47905.7999999998	0.0103852152824402	-0.730483450309691	1005.46594449041	1005.46594449041
99.2672714599175	999.860267552896	47906.7999999998	0.0103861093521118	-0.73064138433596	999.860267552896	999.860267552896
99.2550884754328	994.034454715513	47907.7999999998	0.0103864073753357	-0.730644743682863	994.034454715513	994.034454715513
99.2429073919011	987.88939823032	47908.7999999998	0.0103861093521118	-0.730499021872382	987.88939823032	987.88939823032
99.2307326674151	981.678408854897	47909.7999999998	0.0103864073753357	-0.730201765905584	981.678408854897	981.678408854897
99.2185656051956	975.14819582995	47910.7999999998	0.0103855133056641	-0.729742867355826	975.14819582995	975.14819582995
99.206408030007	968.574087265004	47911.7999999998	0.0103849172592163	-0.729133179431025	968.574087265004	968.574087265004
99.194263556773	961.790899349871	47912.7999999998	0.0103861093521118	-0.728373251479297	961.790899349871	961.790899349871
99.1821347920593	954.831677975525	47913.7999999998	0.0103855133056641	-0.727482655184376	954.831677975525	954.831677975525
99.1700229378325	947.652380238951	47914.7999999998	0.0103843212127686	-0.726467316256714	947.652380238951	947.652380238951
99.1579305125619	940.396173249611	47915.7999999998	0.0103858113288879	-0.725299477735908	940.396173249611	940.396173249611
99.1458596909769	932.985976340036	47916.7999999998	0.0103861093521118	-0.724015689175376	932.985976340036	932.985976340036
99.1338110849656	925.410782455132	47917.7999999998	0.0103858113288879	-0.722619547901502	925.410782455132	925.410782455132
99.1217897576044	917.813754174664	47918.7999999998	0.0103852152824402	-0.721094872354757	917.813754174664	917.813754174664
99.1097950597025	910.084773872062	47919.7999999998	0.0103852152824402	-0.719465075434341	910.084773872062	910.084773872062
99.0978291781375	902.157777254334	47920.7999999998	0.0103867053985596	-0.717706680869453	902.157777254334	902.157777254334
99.0858952027245	894.24199036115	47921.7999999998	0.0103870034217834	-0.715837057245657	894.24199036115	894.24199036115
99.0739929204279	886.172241435629	47922.7999999998	0.0103840231895447	-0.713880533393072	886.172241435629	886.172241435629
99.0621272448755	878.003594551882	47923.7999999998	0.0103846192359924	-0.711813470449312	878.003594551882	878.003594551882
99.0502967616203	869.879195455871	47924.7999999998	0.0103858113288879	-0.709639384389423	869.879195455871	869.879195455871
99.0385036953753	861.589834262148	47925.7999999998	0.0103846192359924	-0.707387883697907	861.589834262148	861.589834262148
99.0267501548167	853.234614833041	47926.7999999998	0.0103867053985596	-0.705038987957169	853.234614833041	853.234614833041
99.0150379166254	845.011733645697	47927.7999999998	0.0103849172592163	-0.702619150313077	845.011733645697	845.011733645697
99.003366616293	836.645918449281	47928.7999999998	0.0103858113288879	-0.700114067970219	836.645918449281	836.645918449281
98.9917383718329	828.302332524458	47929.7999999998	0.0103864073753357	-0.697532232985176	828.302332524458	828.302332524458
98.9801550106723	819.958954496019	47930.7999999998	0.0103849172592163	-0.694882100818372	819.958954496019	819.958954496019
98.9686167870237	811.527700704869	47931.7999999998	0.0103840231895447	-0.692165549430237	811.527700704869	811.527700704869
98.9571249348603	803.173726873642	47932.7999999998	0.0103861093521118	-0.689374596815193	803.173726873642	803.173726873642
98.9456805763879	794.786929130453	47933.7999999998	0.0103855133056641	-0.686520343048552	794.786929130453	794.786929130453
98.9342852691919	786.532458343855	47934.7999999998	0.0103867053985596	-0.683617498878927	786.532458343855	786.532458343855
98.9229395799979	778.190111859651	47935.7999999998	0.0103870034217834	-0.680654058907066	778.190111859651	778.190111859651
98.9116443318105	769.880999208748	47936.7999999998	0.0103870034217834	-0.677645919697584	769.880999208748	769.880999208748
98.9003996358031	761.649156894816	47937.7999999998	0.0103858113288879	-0.674590894917628	761.649156894816	761.649156894816
98.8892071468179	753.406505946968	47938.7999999998	0.0103867053985596	-0.671497494584636	753.406505946968	753.406505946968
98.8780662442289	745.142035525431	47939.7999999998	0.0103861093521118	-0.668369926417459	745.142035525431	745.142035525431
98.8669783053142	736.954830023075	47940.7999999998	0.0103870034217834	-0.665197904468187	736.954830023075	736.954830023075
98.8559438948237	728.778830787733	47941.7999999998	0.0103870034217834	-0.661989584433676	728.778830787733	728.778830787733
98.8449630885826	720.735136734012	47942.7999999998	0.0103855133056641	-0.658760553526544	720.735136734012	720.735136734012
98.8340379096226	712.658608549505	47943.7999999998	0.0103846192359924	-0.655500777654408	712.658608549505	712.658608549505
98.8231675176192	704.758414917976	47944.7999999998	0.0103861093521118	-0.65221284828689	704.758414917976	704.758414917976
98.8123517489065	696.803364156144	47945.7999999998	0.0103855133056641	-0.64891264147637	696.803364156144	696.803364156144
98.8015911535026	689.024639941168	47946.7999999998	0.0103855133056641	-0.645589267229484	689.024639941168	689.024639941168
98.7908868063474	681.246098822103	47947.7999999998	0.0103867053985596	-0.642266567820765	681.246098822103	681.246098822103
98.7802374199848	673.555806839329	47948.7999999998	0.0103873014450073	-0.638928576578175	673.555806839329	673.555806839329
98.7696443407391	665.942752650934	47949.7999999998	0.0103846192359924	-0.635580377536696	665.942752650934	665.942752650934
98.7591068100435	658.384915793606	47950.7999999998	0.0103864073753357	-0.632219796113499	658.384915793606	658.384915793606
98.7486258503517	650.981367955973	47951.7999999998	0.0103849172592163	-0.628867506386744	650.981367955973	650.981367955973
98.7382007048605	643.566981631454	47952.7999999998	0.0103873014450073	-0.625513120931324	643.566981631454	643.566981631454
98.7278321772893	636.40594853346	47953.7999999998	0.0103849172592163	-0.622164333109773	636.40594853346	636.40594853346
98.7175189306023	629.322133319817	47954.7999999998	0.010383129119873	-0.618814571317695	629.322133319817	629.322133319817
98.7072608892094	622.227470236266	47955.7999999998	0.0103852152824402	-0.615481303791959	622.227470236266	622.227470236266
98.6970585018763	615.33110519889	47956.7999999998	0.0103861093521118	-0.612155992066416	615.33110519889	615.33110519889
98.6869117767231	608.37985665897	47957.7999999998	0.0103846192359924	-0.608859044351837	608.37985665897	608.37985665897
98.6768196982427	601.692942431704	47958.7999999998	0.0103855133056641	-0.605574555472685	601.692942431704	601.692942431704
98.6667825057861	595.105243275892	47959.7999999998	0.0103870034217834	-0.602302448490458	595.105243275892	595.105243275892
